line,x-axis (g),y-axis (g),z-axis (g),x-axis (deg/s),y-axis (deg/s),z-axis (deg/s)
0,-1.245,0.712,-0.053,28.445,-3.049,-303.354
1,-1.256,0.954,-0.156,31.402,80.884,-281.707
2,-1.557,1.209,-0.18,29.512,153.354,-258.811
3,-2.062,1.375,-0.245,23.079,175.579,-234.207
4,-2.382,1.53,-0.388,24.36,135.244,-201.738
5,-2.222,1.785,-0.585,30.976,74.817,-154.787
6,-1.85,1.984,-0.787,19.421,41.768,-102.287
7,-1.571,2.006,-0.945,-6.86,53.14,-56.098
8,-1.545,1.996,-0.992,-33.354,82.896,-14.543
9,-1.671,1.909,-0.99,-65.762,103.14,21.585
10,-1.834,1.77,-0.968,-102.713,93.262,52.866
11,-2.018,1.614,-0.931,-138.262,56.037,81.982
12,-2.125,1.448,-0.93,-166.982,5.396,110.61
13,-2.222,1.221,-0.881,-191.829,-40.091,140.335
14,-2.338,0.935,-0.851,-211.463,-56.921,169.787
15,-2.442,0.65,-0.864,-224.177,-40.091,200.183
16,-2.608,0.423,-0.889,-229.482,-6.951,230.457
17,-2.952,0.32,-1.015,-228.232,26.28,263.049
18,-3.475,0.246,-1.122,-235.366,56.311,292.561
19,-3.98,0.062,-1.243,-249.97,64.329,317.896
20,-4.319,-0.2,-1.36,-259.238,32.683,346.799
21,-4.384,-0.511,-1.445,-260.396,-9.604,381.098
22,-4.198,-0.788,-1.505,-251.311,-36.22,415.549
23,-3.949,-1.019,-1.512,-241.402,-37.774,446.616
24,-3.711,-1.204,-1.351,-238.262,-21.22,472.5
25,-3.327,-1.38,-1.108,-236.616,-11.86,488.841
26,-2.706,-1.537,-0.889,-229.756,-24.848,496.89
27,-1.738,-1.629,-0.794,-216.524,-39.756,491.128
28,-0.582,-1.708,-0.993,-201.128,-42.53,462.744
29,0.461,-1.807,-1.093,-182.195,-13.963,412.287
30,1.21,-1.861,-0.801,-155.762,63.232,334.116
31,1.453,-1.908,-0.356,-141.098,134.543,223.78
32,1.13,-2.132,0.133,-148.841,114.268,114.604
33,0.85,-2.568,0.576,-165.945,5.122,26.677
34,0.863,-2.995,0.616,-177.652,-136.707,-50.762
35,1.221,-3.211,0.39,-164.543,-218.293,-116.89
36,1.559,-3.208,0.428,-115.518,-175.061,-168.018
37,1.181,-2.983,0.755,-46.067,-37.622,-201.28
38,0.219,-2.586,0.962,24.787,90.396,-215.945
39,-0.647,-2.144,0.811,88.415,127.713,-218.689
40,-1.094,-1.648,0.47,146.585,95.183,-219.085
41,-1.219,-1.117,0.031,199.39,54.024,-222.896
42,-1.25,-0.606,-0.438,239.329,46.585,-227.957
43,-1.393,-0.117,-0.831,263.354,78.537,-228.933
44,-1.733,0.41,-1.15,274.451,118.994,-219.97
45,-2.175,1.016,-1.31,271.28,133.476,-193.78
46,-2.504,1.668,-1.323,252.104,113.018,-155.793
47,-2.603,2.202,-1.251,209.299,70.305,-121.006
48,-2.602,2.508,-1.112,149.604,21.768,-97.835
49,-2.639,2.615,-0.945,90.854,-24.39,-75.823
50,-2.706,2.586,-0.75,43.476,-68.963,-44.085
51,-2.667,2.517,-0.535,9.482,-102.47,-5.64
52,-2.533,2.406,-0.286,-13.689,-120.305,36.067
53,-2.464,2.248,-0.109,-26.86,-124.055,78.11
54,-2.427,2.046,-0.001,-35.122,-117.866,119.421
55,-2.314,1.82,0.057,-41.86,-113.872,158.78
56,-2.228,1.567,0.024,-48.994,-118.963,193.232
57,-2.164,1.329,-0.082,-57.561,-132.866,222.378
58,-1.932,1.071,-0.211,-66.037,-150.579,245.213
59,-1.615,0.842,-0.304,-68.75,-163.659,264.024
60,-1.325,0.659,-0.352,-68.354,-161.524,277.47
61,-1.074,0.508,-0.34,-69.909,-150.915,283.872
62,-0.806,0.267,-0.297,-72.317,-147.287,284.268
63,-0.521,0.039,-0.288,-69.299,-153.293,278.079
64,-0.211,-0.097,-0.305,-64.146,-157.683,262.683
65,0.115,-0.195,-0.348,-59.909,-161.067,234.848
66,0.415,-0.321,-0.323,-56.006,-164.238,196.28
67,0.747,-0.478,-0.275,-50,-157.652,151.372
68,1.064,-0.69,-0.223,-45.305,-143.171,100.701
69,1.226,-0.938,-0.144,-41.189,-123.415,44.756
70,1.144,-1.073,-0.036,-30.579,-101.585,-13.994
71,0.968,-1.042,0.012,-20.213,-77.5,-70.396
72,0.77,-0.987,0.022,-16.555,-57.896,-121.128
73,0.501,-0.971,0.012,-13.567,-45.823,-163.506
74,0.193,-0.959,-0.06,-4.756,-41.799,-196.189
75,-0.086,-0.91,-0.14,11.86,-43.933,-219.116
76,-0.342,-0.83,-0.18,34.726,-49.512,-233.841
77,-0.554,-0.691,-0.156,59.085,-50.915,-243.323
78,-0.717,-0.555,-0.026,76.006,-46.006,-251.494
79,-0.857,-0.464,0.066,86.89,-38.11,-259.146
80,-0.979,-0.344,0.025,100.091,-29.878,-263.872
81,-1.096,-0.186,-0.033,112.591,-20.793,-267.104
82,-1.177,-0.035,-0.11,123.293,-10.305,-273.11
83,-1.232,0.118,-0.207,133.049,-1.25,-278.354
84,-1.279,0.255,-0.291,139.268,11.921,-283.232
85,-1.263,0.335,-0.354,140.244,33.567,-287.317
86,-1.266,0.367,-0.334,136.341,54.787,-290.396
87,-1.324,0.385,-0.257,126.189,75.274,-292.622
88,-1.408,0.407,-0.183,109.604,87.622,-298.11
89,-1.509,0.442,-0.13,89.695,81.372,-306.921
90,-1.543,0.495,-0.093,68.232,59.726,-318.232
91,-1.503,0.521,-0.085,45.884,30.915,-332.256
92,-1.438,0.501,0.03,22.165,2.561,-342.622
93,-1.356,0.448,0.112,5.976,-15.701,-346.585
94,-1.229,0.435,0.125,3.659,-19.299,-342.683
95,-1.156,0.484,0.141,10.488,-4.238,-328.902
96,-1.135,0.584,0.072,23.232,41.768,-308.079
97,-1.149,0.767,-0.049,39.726,105.457,-283.354
98,-1.39,1.012,-0.155,51.098,153.902,-256.189
99,-1.766,1.225,-0.297,57.53,178.323,-227.287
100,-1.939,1.485,-0.492,64.848,181.433,-193.598
101,-1.905,1.781,-0.678,64.421,168.567,-151.341
102,-1.853,1.974,-0.845,46.402,159.421,-107.043
103,-2.017,1.997,-0.939,12.5,154.116,-68.323
104,-2.214,1.894,-0.917,-25.762,138.963,-31.463
105,-2.241,1.863,-0.898,-59.726,108.72,10.061
106,-2.322,1.872,-0.946,-101.463,76.25,46.921
107,-2.448,1.724,-0.983,-149.329,45.122,78.018
108,-2.433,1.506,-1,-187.927,15.396,116.006
109,-2.389,1.372,-1.025,-211.22,-1.189,160.762
110,-2.48,1.237,-0.988,-227.591,3.14,204.817
111,-2.727,1.07,-0.976,-238.232,20.762,244.116
112,-3.061,0.879,-0.982,-246.585,38.628,274.39
113,-3.39,0.671,-1.119,-250.732,51.585,299.39
114,-3.79,0.513,-1.381,-253.049,65.579,323.262
115,-4.313,0.335,-1.66,-260.762,73.415,350.884
116,-4.845,0.053,-1.818,-270.64,57.805,387.409
117,-4.981,-0.344,-1.771,-281.341,21.921,432.866
118,-4.621,-0.818,-1.618,-288.171,-31.25,475.64
119,-3.919,-1.385,-1.382,-292.073,-75.335,501.463
120,-2.874,-1.906,-1.098,-288.598,-90.061,500.183
121,-1.656,-2.234,-1.196,-275.274,-75.488,466.555
122,-0.456,-2.292,-1.498,-247.195,-20.518,413.659
123,0.659,-2.334,-1.088,-201.28,90.244,345.549
124,1.105,-2.472,-0.42,-174.177,197.744,252.53
125,0.716,-2.755,0.134,-191.28,223.75,146.098
126,0.297,-3.023,0.539,-228.872,138.445,42.896
127,0.312,-3.178,0.669,-254.817,-21.372,-50.274
128,0.64,-3.163,0.679,-244.024,-170.671,-123.293
129,1.032,-2.904,0.673,-196.585,-238.933,-168.262
130,1.174,-2.513,0.682,-120.701,-212.53,-190.976
131,1.01,-2.093,0.723,-32.591,-114.97,-203.018
132,0.493,-1.68,0.673,52.652,-1.341,-208.72
133,-0.168,-1.281,0.478,125.793,78.72,-202.226
134,-0.756,-0.886,0.094,182.043,111.159,-189.451
135,-1.221,-0.463,-0.3,220.061,111.372,-175.579
136,-1.42,-0.025,-0.626,241.159,98.841,-165.915
137,-1.38,0.433,-0.945,251.433,83.841,-159.726
138,-1.33,0.928,-1.145,248.78,79.634,-150.274
139,-1.4,1.373,-1.208,222.561,92.226,-137.957
140,-1.565,1.727,-1.19,180.945,104.634,-126.159
141,-1.84,1.955,-1.052,130.213,94.085,-116.128
142,-2.228,2.007,-0.852,74.421,57.957,-108.079
143,-2.571,2.002,-0.601,25.701,5.61,-90.945
144,-2.725,2.036,-0.368,-10,-49.848,-57.378
145,-2.754,2.053,-0.131,-35.122,-93.171,-13.293
146,-2.726,1.979,0.096,-47.957,-115.61,35.305
147,-2.656,1.857,0.286,-48.262,-124.146,86.402
148,-2.535,1.688,0.382,-39.451,-124.085,133.659
149,-2.35,1.494,0.408,-27.073,-115.915,176.006
150,-2.157,1.318,0.357,-17.073,-106.25,216.982
151,-2.062,1.154,0.216,-11.951,-103.75,253.323
152,-2.005,0.957,0.076,-13.841,-111.28,280.915
153,-1.728,0.711,-0.05,-19.238,-124.604,299.97
154,-1.318,0.483,-0.139,-24.939,-140.03,307.53
155,-0.988,0.256,-0.223,-30.793,-156.341,303.262
156,-0.683,0.066,-0.271,-33.201,-173.384,289.848
157,-0.333,-0.064,-0.292,-31.616,-186.951,264.939
158,0.015,-0.151,-0.308,-31.189,-193.049,231.189
159,0.354,-0.222,-0.291,-31.128,-185.03,190.793
160,0.694,-0.364,-0.285,-33.902,-160.213,144.756
161,0.973,-0.581,-0.317,-38.567,-125.64,93.171
162,1.104,-0.781,-0.302,-39.421,-91.067,36.159
163,1.005,-0.901,-0.219,-36.402,-65.366,-25.64
164,0.793,-0.967,-0.084,-34.085,-51.189,-86.067
165,0.58,-0.962,-0.018,-32.348,-47.012,-139.36
166,0.373,-0.922,-0.032,-32.378,-50.244,-183.689
167,0.162,-0.904,-0.061,-26.707,-60.579,-217.256
168,-0.046,-0.888,-0.08,-11.067,-75.793,-241.707
169,-0.205,-0.833,-0.134,14.207,-86.707,-258.14
170,-0.281,-0.771,-0.136,40.793,-83.079,-270.244
171,-0.382,-0.72,-0.127,65.274,-64.207,-279.36
172,-0.561,-0.642,-0.161,86.738,-32.012,-282.744
173,-0.719,-0.555,-0.101,104.726,8.232,-285.976
174,-0.874,-0.495,-0.027,119.604,38.262,-294.573
175,-1.042,-0.401,-0.067,133.659,46.829,-301.25
176,-1.194,-0.244,-0.18,148.384,41.677,-303.354
177,-1.294,-0.092,-0.331,160.061,38.476,-303.445
178,-1.274,0.01,-0.433,167.896,47.012,-303.476
179,-1.279,0.105,-0.413,173.902,63.354,-303.506
180,-1.374,0.223,-0.303,173.354,88.689,-302.134
181,-1.481,0.402,-0.3,166.494,115.427,-301.494
182,-1.578,0.668,-0.368,159.573,129.207,-298.872
183,-1.602,0.98,-0.437,150.854,130.762,-287.957
184,-1.536,1.254,-0.44,139.146,129.604,-273.506
185,-1.417,1.387,-0.398,118.171,135.396,-262.409
186,-1.427,1.383,-0.384,90.976,143.963,-254.146
187,-1.625,1.364,-0.46,71.311,145.579,-238.872
188,-1.836,1.499,-0.565,65.396,130.396,-209.268
189,-1.898,1.752,-0.649,59.695,102.835,-175.732
190,-1.7,1.961,-0.712,46.28,79.116,-145.701
191,-1.394,2.027,-0.792,21.677,74.787,-118.78
192,-1.309,1.945,-0.834,-14.055,94.878,-98.415
193,-1.316,1.758,-0.846,-52.073,128.567,-81.159
194,-1.339,1.594,-0.904,-80.457,147.47,-58.994
195,-1.543,1.451,-0.969,-106.25,148.598,-36.89
196,-1.813,1.372,-0.99,-128.384,134.512,-18.476
197,-1.993,1.311,-0.962,-153.049,103.079,-5.427
198,-2.131,1.202,-0.944,-181.159,61.402,5.701
199,-2.292,1.09,-1.049,-204.39,21.189,20.976
200,-2.519,1.017,-1.262,-222.805,-9.726,43.72
201,-2.755,0.881,-1.42,-237.927,-23.933,72.896
202,-2.896,0.736,-1.561,-238.018,-20.366,116.189
203,-3.136,0.659,-1.621,-234.848,6.89,169.055
204,-3.623,0.615,-1.73,-245.793,46.951,217.927
205,-4.29,0.532,-1.81,-272.53,51.098,256.982
206,-4.745,0.292,-1.819,-305.396,0.793,299.024
207,-4.926,-0.035,-1.878,-332.835,-92.073,348.354
208,-4.831,-0.417,-1.806,-349.024,-177.134,399.543
209,-4.424,-0.821,-1.592,-348.506,-221.677,454.177
210,-3.873,-1.171,-1.281,-327.744,-216.616,510.671
211,-3.505,-1.417,-0.901,-297.165,-184.421,558.445
212,-3.008,-1.748,-0.519,-272.683,-154.604,581.585
213,-2.142,-2.146,-0.284,-236.982,-160.976,575.549
214,-0.914,-2.345,-0.732,-188.14,-183.506,540.335
215,0.418,-2.563,-1.31,-136.037,-173.11,477.591
216,1.676,-2.872,-1.019,-75.335,-74.451,380.945
217,1.768,-2.953,-0.031,-34.543,48.811,271.921
218,0.921,-3.119,0.44,-70.671,86.524,189.634
219,0.541,-3.469,0.25,-126.433,9.604,111.646
220,1.12,-3.487,0.14,-143.445,-77.165,8.78
221,1.859,-3.092,0.324,-118.415,-103.14,-89.146
222,1.845,-2.604,0.682,-78.354,-70.64,-150.64
223,1.317,-2.15,0.889,-36.799,-18.018,-203.476
224,0.711,-1.739,0.789,10.945,21.616,-252.957
225,0.047,-1.361,0.479,65.549,51.189,-278.293
226,-0.75,-0.979,0.112,120.457,70.915,-280.762
227,-1.553,-0.469,-0.194,170.213,79.268,-265.457
228,-2.123,0.218,-0.42,208.994,82.805,-240.396
229,-2.286,0.933,-0.595,228.689,84.878,-212.287
230,-2.162,1.534,-0.76,224.939,80.854,-175.457
231,-1.961,1.837,-0.843,193.78,72.043,-133.354
232,-1.849,1.922,-0.805,157.043,53.506,-104.756
233,-1.764,2.073,-0.747,130.762,28.933,-85.152
234,-1.676,2.355,-0.709,107.134,1.311,-67.439
235,-1.691,2.582,-0.523,74.848,-21.159,-53.537
236,-1.818,2.537,-0.296,34.421,-29.787,-41.555
237,-2.013,2.402,-0.166,3.902,-36.433,-17.5
238,-2.167,2.264,-0.057,-15.427,-46.951,18.567
239,-2.146,2.102,0.075,-25.884,-56.098,59.39
240,-1.969,1.937,0.198,-28.476,-62.012,100.122
241,-1.742,1.744,0.23,-30.793,-61.89,134.146
242,-1.556,1.474,0.211,-33.872,-60.061,160.701
243,-1.354,1.146,0.161,-33.384,-59.573,181.799
244,-1.112,0.874,0.087,-28.598,-60.793,198.293
245,-0.87,0.68,0.063,-23.018,-63.079,206.128
246,-0.577,0.503,0.02,-20.061,-68.262,201.22
247,-0.243,0.276,-0.078,-18.567,-79.665,181.402
248,0.079,0.044,-0.147,-17.134,-90.915,152.287
249,0.408,-0.163,-0.12,-18.537,-91.585,117.47
250,0.665,-0.394,-0.058,-24.116,-84.573,74.665
251,0.694,-0.623,0.02,-29.543,-82.47,24.848
252,0.563,-0.763,0.08,-29.299,-91.006,-27.043
253,0.441,-0.851,0.079,-28.049,-107.5,-77.988
254,0.329,-0.917,0.03,-27.5,-122.957,-123.506
255,0.203,-0.919,-0.009,-19.726,-129.787,-159.299
256,0.051,-0.838,-0.062,-2.195,-127.927,-183.933
257,-0.154,-0.7,-0.114,20,-117.287,-198.72
258,-0.38,-0.57,-0.111,40.305,-97.744,-209.055
259,-0.533,-0.483,-0.101,57.561,-75.793,-218.72
260,-0.643,-0.378,-0.13,74.939,-58.902,-224.787
261,-0.76,-0.264,-0.156,88.628,-43.811,-227.927
262,-0.906,-0.165,-0.127,98.476,-30.793,-230.762
263,-0.998,-0.065,-0.092,106.829,-22.713,-233.872
264,-1.061,0.052,-0.1,117.439,-22.5,-235.732
265,-1.157,0.191,-0.159,128.415,-24.299,-234.695
266,-1.208,0.347,-0.207,136.372,-22.378,-231.646
267,-1.278,0.477,-0.166,138.78,-20.244,-229.024
268,-1.404,0.543,-0.115,132.561,-16.89,-229.421
269,-1.502,0.606,-0.113,126.22,-15.671,-232.866
270,-1.48,0.749,-0.175,122.744,-14.97,-235.884
271,-1.385,0.964,-0.253,113.628,-11.159,-238.476
272,-1.327,1.127,-0.288,91.524,-6.616,-243.14
273,-1.333,1.166,-0.236,59.787,-4.787,-250.915
274,-1.381,1.128,-0.074,22.835,-7.165,-259.573
275,-1.408,1.057,0.064,-15.915,-14.39,-266.372
276,-1.332,1.012,0.109,-49.39,-21.707,-269.116
277,-1.17,0.993,0.127,-79.207,-19.726,-265.732
278,-1.022,0.912,0.113,-104.97,-4.756,-259.97
279,-0.874,0.812,0.04,-118.262,21.494,-250.976
280,-0.751,0.823,0.095,-118.933,51.677,-236.341
281,-0.74,0.922,0.253,-109.573,74.604,-220.152
282,-0.834,1.105,0.154,-83.75,80.274,-199.878
283,-0.908,1.302,-0.184,-50.488,84.543,-172.713
284,-0.771,1.404,-0.439,-23.72,102.774,-142.744
285,-0.596,1.397,-0.594,1.159,135.244,-111.799
286,-0.63,1.42,-0.715,17.591,189.939,-75.122
287,-0.876,1.514,-0.807,18.841,246.524,-36.372
288,-1.254,1.684,-0.874,3.079,268.323,-4.726
289,-1.672,1.762,-0.846,-36.89,243.476,13.902
290,-1.938,1.722,-0.863,-84.878,177.104,27.104
291,-2.007,1.67,-1.037,-124.329,89.878,42.805
292,-2.041,1.573,-1.227,-158.72,29.329,63.506
293,-2.207,1.399,-1.304,-184.878,23.537,96.22
294,-2.53,1.267,-1.401,-196.25,65.61,140.884
295,-3.064,1.252,-1.635,-204.726,129.512,188.171
296,-3.879,1.182,-1.833,-223.841,170.213,228.963
297,-4.761,0.999,-1.965,-247.47,152.012,268.841
298,-5.298,0.655,-2.016,-274.543,77.073,311.189
299,-5.199,0.186,-1.951,-296.738,-12.561,356.86
300,-4.643,-0.175,-1.825,-299.482,-67.165,406.982
301,-4.133,-0.385,-1.695,-292.896,-63.628,455.579
302,-3.923,-0.592,-1.58,-291.982,-21.677,490.366
303,-3.822,-0.895,-1.366,-297.256,20.854,503.445
304,-3.62,-1.235,-0.98,-298.628,30.213,500.03
305,-3.167,-1.596,-0.554,-292.348,3.201,485.518
306,-2.271,-1.976,-0.4,-273.598,-39.451,456.402
307,-1.119,-2.28,-0.621,-241.433,-63.963,410.854
308,0.017,-2.439,-0.637,-195.366,-25.03,350.579
309,0.764,-2.514,-0.119,-144.695,63.14,269.451
310,0.703,-2.576,0.372,-126.037,112.348,184.573
311,0.268,-2.847,0.611,-139.573,68.902,118.628
312,0.337,-3.262,0.655,-152.927,-36.28,50.396
313,0.834,-3.41,0.724,-147.134,-136.738,-30
314,1.247,-3.155,0.758,-119.848,-178.902,-101.677
315,1.263,-2.793,0.736,-71.768,-161.707,-151.829
316,0.976,-2.416,0.659,-8.171,-109.482,-190.671
317,0.511,-1.971,0.499,62.256,-53.537,-218.506
318,-0.051,-1.468,0.213,129.207,-12.409,-230.091
319,-0.633,-0.952,-0.182,180.64,16.89,-231.402
320,-1.197,-0.441,-0.573,213.201,42.287,-231.006
321,-1.656,0.071,-0.843,226.646,57.561,-224.451
322,-1.968,0.592,-1.027,225.945,52.317,-204.055
323,-2.065,1.155,-1.135,217.104,30.183,-174.36
324,-2.013,1.7,-1.093,195.945,0.579,-141.128
325,-1.89,2.054,-0.973,160.854,-25.915,-111.402
326,-1.811,2.255,-0.812,125.579,-44.604,-90.457
327,-1.851,2.364,-0.605,93.598,-55.061,-71.067
328,-2.023,2.411,-0.421,65.427,-66.463,-46.646
329,-2.229,2.413,-0.287,40.488,-83.689,-18.415
330,-2.332,2.36,-0.163,20.366,-107.073,13.628
331,-2.318,2.24,-0.086,5.854,-131.098,46.951
332,-2.237,2.081,-0.022,-3.232,-149.726,79.787
333,-2.09,1.903,0.055,-8.262,-160.335,111.89
334,-1.937,1.728,0.049,-11.006,-164.665,141.86
335,-1.78,1.56,0.008,-12.561,-165,169.939
336,-1.555,1.381,-0.025,-15.03,-161.311,195.366
337,-1.289,1.192,-0.034,-20.518,-152.561,214.207
338,-1.101,1.001,-0.077,-27.835,-147.043,223.171
339,-0.961,0.786,-0.134,-35.122,-154.207,224.97
340,-0.758,0.6,-0.209,-37.561,-173.354,221.128
341,-0.495,0.455,-0.209,-36.738,-192.53,211.037
342,-0.164,0.324,-0.168,-36.159,-201.463,195.884
343,0.128,0.165,-0.18,-37.226,-202.591,175.732
344,0.328,0.008,-0.206,-37.744,-194.512,152.805
345,0.53,-0.109,-0.253,-35.091,-174.878,124.634
346,0.74,-0.207,-0.27,-33.811,-145.976,89.451
347,0.938,-0.32,-0.247,-34.695,-110.427,49.329
348,1.002,-0.493,-0.24,-36.768,-78.75,5.152
349,0.893,-0.65,-0.206,-35.701,-55.366,-37.226
350,0.706,-0.709,-0.159,-28.902,-43.933,-75.762
351,0.544,-0.735,-0.115,-22.439,-44.878,-111.189
352,0.411,-0.745,-0.09,-14.726,-49.878,-141.982
353,0.265,-0.699,-0.089,-4.024,-51.707,-167.774
354,0.128,-0.642,-0.077,8.567,-49.634,-190.213
355,0.006,-0.577,-0.006,23.171,-44.543,-208.598
356,-0.128,-0.527,0.062,36.311,-35.976,-223.963
357,-0.256,-0.487,0.057,50.884,-26.768,-238.11
358,-0.334,-0.416,0.026,69.756,-16.524,-248.171
359,-0.386,-0.3,-0.025,92.622,0.03,-255.274
360,-0.416,-0.153,-0.098,113.323,31.463,-261.799
361,-0.455,-0.057,-0.218,126.433,71.25,-270.64
362,-0.637,-0.035,-0.35,135.732,108.323,-280.762
363,-0.912,-0.02,-0.389,140.793,139.116,-290
364,-1.168,0.014,-0.375,143.72,149.36,-299.207
365,-1.329,0.107,-0.426,146.341,138.293,-307.043
366,-1.406,0.247,-0.425,138.018,121.951,-316.585
367,-1.429,0.344,-0.327,115.457,109.39,-331.28
368,-1.397,0.424,-0.268,93.445,95.854,-347.5
369,-1.337,0.526,-0.216,73.14,81.707,-359.512
370,-1.353,0.577,-0.207,51.799,72.134,-368.293
371,-1.367,0.636,-0.274,41.463,72.195,-370.183
372,-1.281,0.843,-0.332,42.896,88.018,-360.457
373,-1.174,1.161,-0.454,46.189,124.299,-344.299
374,-1.137,1.554,-0.69,46.128,175.396,-322.317
375,-1.209,1.952,-1.012,40,220.396,-296.311
376,-1.461,2.187,-1.29,19.756,236.646,-272.348
377,-1.812,2.205,-1.415,-12.317,216.098,-247.043
378,-1.979,2.213,-1.336,-50,170.518,-210.823
379,-1.921,2.286,-1.279,-93.963,125.488,-171.707
380,-1.839,2.325,-1.301,-142.988,103.171,-135.884
381,-1.831,2.19,-1.306,-191.646,103.628,-99.421
382,-2.027,1.954,-1.444,-230.244,110.457,-61.616
383,-2.62,1.734,-1.7,-257.835,95.823,-24.848
384,-3.208,1.46,-1.727,-275.854,61.159,16.555
385,-3.555,1.281,-1.733,-281.89,16.585,72.683
386,-3.918,1.215,-1.873,-288.415,-7.927,136.159
387,-4.17,1.05,-1.959,-304.207,9.085,207.012
388,-4.409,0.808,-2.09,-321.372,43.018,281.524
389,-4.719,0.483,-2.298,-340.305,70.213,346.799
390,-4.967,0.054,-2.381,-359.329,66.799,404.848
391,-5.145,-0.438,-2.269,-370.854,22.591,453.872
392,-5.094,-0.926,-2.049,-373.872,-46.128,493.354
393,-4.643,-1.446,-1.744,-369.817,-113.933,521.098
394,-3.897,-1.931,-1.389,-351.494,-152.896,535.671
395,-2.92,-2.248,-0.99,-318.75,-147.683,533.201
396,-1.862,-2.54,-0.832,-274.756,-109.604,509.756
397,-0.779,-2.802,-0.945,-216.341,-43.933,461.494
398,0.291,-2.812,-0.805,-143.018,49.36,385.671
399,0.998,-2.716,-0.242,-90.701,136.89,290.884
400,0.934,-2.826,0.393,-93.689,150.701,191.494
401,0.497,-3.019,0.729,-139.055,65.64,96.372
402,0.62,-3.25,0.592,-189.512,-73.354,-7.134
403,1.24,-3.338,0.446,-200.793,-182.805,-104.299
404,1.557,-3.221,0.563,-169.512,-199.299,-178.201
405,1.199,-2.936,0.765,-105.396,-157.439,-225.823
406,0.531,-2.575,0.887,-24.878,-109.756,-252.012
407,-0.067,-2.195,0.784,53.11,-70.396,-263.933
408,-0.528,-1.794,0.466,124.421,-33.567,-265.64
409,-0.96,-1.339,0.022,187.866,11.86,-252.713
410,-1.418,-0.865,-0.528,238.598,60.671,-232.348
411,-1.832,-0.388,-1.024,274.207,89.512,-205.671
412,-2.059,0.12,-1.43,292.866,85.396,-175.976
